  2.2180000e+003
  2.2081123e+003
  2.2187417e+003
  2.2375338e+003
  2.2386309e+003
  2.2526722e+003
  2.2610190e+003
  2.2768680e+003
  2.2860271e+003
  2.3077428e+003
  2.3317294e+003
  2.3653008e+003
  2.3921356e+003
  2.4356817e+003
  2.4777538e+003
  2.5383185e+003
  2.5501170e+003
  2.5529451e+003
  2.5326337e+003
  2.4906883e+003
  2.4055714e+003
  2.3205911e+003
  2.2449558e+003
  2.2208287e+003
  2.1859498e+003
  2.1758068e+003
  2.1763469e+003
  2.1767513e+003
  2.1784010e+003
  2.1945386e+003
  2.1954250e+003
  2.2121168e+003
  2.2085819e+003
  2.2212023e+003
  2.2249668e+003
  2.2341267e+003
  2.2270572e+003
  2.2149769e+003
  2.2240512e+003
  2.2345138e+003
  2.2169392e+003
  2.2111418e+003
  2.2247835e+003
  2.2180732e+003
  2.2073542e+003
  2.2085119e+003
  2.2122307e+003
  2.2052053e+003
  2.2156030e+003
  2.2020686e+003
  2.2052853e+003
  2.1997718e+003
  2.2326499e+003
  2.2555858e+003
  2.2929845e+003
  2.3285841e+003
  2.3189490e+003
  2.3101998e+003
  2.2938367e+003
  2.2347743e+003
  2.2052224e+003
  2.1752601e+003
  2.1720544e+003
  2.1735755e+003
  2.1620677e+003
  2.1684888e+003
  2.1525957e+003
  2.1943341e+003
  2.5920935e+003
  3.1050406e+003
  2.7567042e+003
  2.1891187e+003
  2.1534957e+003
  2.2372655e+003
  2.2470847e+003
  2.2324302e+003
  2.2507063e+003
  2.2618664e+003
  2.2739906e+003
  2.2672530e+003
  2.2782554e+003
  2.3036815e+003
  2.3216031e+003
  2.3276964e+003
  2.3514175e+003
  2.3884805e+003
  2.4278734e+003
  2.4659480e+003
  2.4994511e+003
  2.5438875e+003
  2.5733422e+003
  2.5582933e+003
  2.5474067e+003
  2.5137950e+003
  2.4246134e+003
  2.3307580e+003
  2.2737659e+003
  2.2260562e+003
  2.1897870e+003
  2.1902642e+003
  2.1752229e+003
  2.1863252e+003
  2.1834851e+003
  2.1858552e+003
  2.1907883e+003
  2.2074437e+003
  2.2052109e+003
  2.2090598e+003
  2.2131423e+003
  2.2304114e+003
  2.2126295e+003
  2.2188708e+003
  2.2018210e+003
  2.2144794e+003
  2.2040812e+003
  2.2035204e+003
  2.1946971e+003
  2.1914215e+003
  2.1864919e+003
  2.1874452e+003
  2.1889004e+003
  2.1827357e+003
  2.1738478e+003
  2.1627380e+003
  2.1826783e+003
  2.1937423e+003
  2.2264842e+003
  2.2540901e+003
  2.3049157e+003
  2.3093550e+003
  2.2968067e+003
  2.2621641e+003
  2.2190483e+003
  2.1805921e+003
  2.1482585e+003
  2.1271314e+003
  2.1361440e+003
  2.1330949e+003
  2.1397365e+003
  2.1121090e+003
  2.1334791e+003
  2.4996737e+003
  3.0489962e+003
  2.7860905e+003
  2.1773777e+003
  2.1075222e+003
  2.1813569e+003
  2.1947059e+003
  2.2019624e+003
  2.1980598e+003
  2.2049648e+003
  2.2051224e+003
  2.2324561e+003
  2.2358956e+003
  2.2435393e+003
  2.2557753e+003
  2.2825115e+003
  2.2981753e+003
  2.3182594e+003
  2.3565998e+003
  2.3848779e+003
  2.4253363e+003
  2.4600664e+003
  2.4754112e+003
  2.4809587e+003
  2.4661776e+003
  2.4124832e+003
  2.3449538e+003
  2.2539884e+003
  2.1765740e+003
  2.1296796e+003
  2.1155930e+003
  2.1014462e+003
  2.0889981e+003
  2.0857101e+003
  2.0999000e+003
  2.0930612e+003
  2.0995777e+003
  2.0984913e+003
  2.1113998e+003
  2.1143338e+003
  2.1175932e+003
  2.1151219e+003
  2.1150147e+003
  2.1153442e+003
  2.1444019e+003
  2.3866501e+003
  2.5879944e+003
  2.6559738e+003
  2.7214796e+003
  2.4202933e+003
  2.4253429e+003
  2.3283063e+003
  2.2455056e+003
  2.2048085e+003
  2.1375611e+003
  2.0978172e+003
  2.0344984e+003
  1.9278224e+003
  1.9477408e+003
  1.9843258e+003
  2.0827346e+003
  2.1673924e+003
  2.1655750e+003
  2.2258214e+003
  2.2430067e+003
  2.2766239e+003
  2.2961271e+003
  2.3111864e+003
  2.3295294e+003
  2.3496262e+003
  2.3839855e+003
  2.4245517e+003
  2.4451990e+003
  2.4311273e+003
  2.3720153e+003
  2.3001535e+003
  2.2371351e+003
  2.2063174e+003
  2.1869623e+003
  2.1757466e+003
  2.1699263e+003
  2.1729266e+003
  2.1743246e+003
  2.1784562e+003
  2.1720521e+003
  2.1661942e+003
  2.1551816e+003
  2.1685492e+003
  2.1611908e+003
  2.1533935e+003
  2.1396459e+003
  2.1350657e+003
  2.1291496e+003
  2.1360359e+003
  2.1194879e+003
  2.1137147e+003
  2.1120079e+003
  2.1250847e+003
  2.1209941e+003
  2.1217509e+003
  2.1245488e+003
  2.1256125e+003
  2.1221836e+003
  2.1251585e+003
  2.1293983e+003
  2.1290042e+003
  2.1288833e+003
  2.1279968e+003
  2.1316485e+003
  2.1303623e+003
  2.1353509e+003
  2.1325607e+003
  2.1419685e+003
  2.1330096e+003
  2.1422360e+003
  2.1448068e+003
  2.1503352e+003
  2.1417068e+003
  2.1459278e+003
  2.1414251e+003
  2.1506117e+003
  2.1512281e+003
  2.1452624e+003
  2.1437583e+003
  2.1537180e+003
  2.1544923e+003
  2.1584384e+003
  2.1545060e+003
  2.1641596e+003
  2.1683134e+003
  2.1795196e+003
  2.1712508e+003
  2.1750374e+003
  2.1706310e+003
  2.1820792e+003
  2.2005380e+003
  2.2505681e+003
  2.2786448e+003
  2.3341237e+003
  2.2987357e+003
  2.3027519e+003
  2.2712839e+003
  2.2331053e+003
  2.2138454e+003
  2.1806213e+003
  2.1667150e+003
  2.1692687e+003
  2.1760237e+003
  2.1815092e+003
  2.1555122e+003
  2.4168377e+003
  2.9830141e+003
  3.0799549e+003
  2.3590854e+003
  2.1901490e+003
  2.2289581e+003
  2.2641485e+003
  2.2443237e+003
  2.2566140e+003
  2.2640180e+003
  2.2667359e+003
  2.2881616e+003
  2.2911989e+003
  2.3085383e+003
  2.3206716e+003
  2.3347632e+003
  2.3424284e+003
  2.3745443e+003
  2.4031730e+003
  2.4302702e+003
  2.4519910e+003
  2.5020109e+003
  2.5298152e+003
  2.5469656e+003
  2.5589601e+003
  2.5553958e+003
  2.5124993e+003
  2.4563408e+003
  2.3972123e+003
  2.3401890e+003
  2.3024648e+003
  2.2930933e+003
  2.2809773e+003
  2.2886522e+003
  2.2901185e+003
  2.2891206e+003
  2.2965123e+003
  2.2976294e+003
  2.3095001e+003
  2.2973546e+003
  2.3138758e+003
  2.3261946e+003
  2.3185592e+003
  2.3227455e+003
  2.3174107e+003
  2.3043206e+003
  2.3024319e+003
  2.2974563e+003
  2.3091393e+003
  2.2931530e+003
  2.2957573e+003
  2.2955973e+003
  2.2997754e+003
  2.2903751e+003
  2.2910245e+003
  2.2837870e+003
  2.2975998e+003
  2.3313463e+003
  2.3556628e+003
  2.3845025e+003
  2.4547690e+003
  2.4075952e+003
  2.3958187e+003
  2.3532549e+003
  2.3285607e+003
  2.2766159e+003
  2.2559800e+003
  2.2456714e+003
  2.2639301e+003
  2.2522102e+003
  2.2723978e+003
  2.2316205e+003
  2.3988512e+003
  2.9450833e+003
  3.2864401e+003
  2.6198827e+003
  2.2719221e+003
  2.3040329e+003
  2.3776045e+003
  2.3624721e+003
  2.3858083e+003
  2.3845004e+003
  2.3638651e+003
  2.4064690e+003
  2.4218143e+003
  2.4348855e+003
  2.4366025e+003
  2.4559247e+003
  2.4793493e+003
  2.5051476e+003
  2.5227756e+003
  2.5813231e+003
  2.5958215e+003
  2.6543626e+003
  2.6779705e+003
  2.7014846e+003
  2.6957378e+003
  2.6714656e+003
  2.6076375e+003
  2.5374532e+003
  2.4522558e+003
  2.3954489e+003
  2.3675237e+003
  2.3685665e+003
  2.3440450e+003
  2.3440809e+003
  2.3391946e+003
  2.3581931e+003
  2.3532292e+003
  2.3677356e+003
  2.3573326e+003
  2.3668753e+003
  2.3672892e+003
  2.3689523e+003
  2.3695798e+003
  2.3693463e+003
  2.3674903e+003
  2.3683453e+003
  2.3614470e+003
  2.3703257e+003
  2.3583535e+003
  2.3425053e+003
  2.3597412e+003
  2.3495070e+003
  2.3420546e+003
  2.3371165e+003
  2.3412323e+003
  2.3450876e+003
  2.3676810e+003
  2.3976441e+003
  2.4374542e+003
  2.4879947e+003
  2.4663867e+003
  2.4510365e+003
  2.4265325e+003
  2.3664886e+003
  2.3394254e+003
  2.3151980e+003
  2.3037718e+003
  2.3052152e+003
  2.3142947e+003
  2.3105938e+003
  2.2821897e+003
  2.3681469e+003
  2.8739422e+003
  3.3388523e+003
  2.7957149e+003
  2.3192883e+003
  2.3061237e+003
  2.3943729e+003
  2.4021409e+003
  2.3850497e+003
  2.3895966e+003
  2.3986698e+003
  2.4147151e+003
  2.4207691e+003
  2.4317971e+003
  2.4373421e+003
  2.4594743e+003
  2.4727243e+003
  2.4930553e+003
  2.5277570e+003
  2.5635650e+003
  2.5959089e+003
  2.6383782e+003
  2.6829211e+003
  2.6986842e+003
  2.6861476e+003
  2.6694386e+003
  2.6165590e+003
  2.5261302e+003
  2.4348760e+003
  2.3787885e+003
  2.3514708e+003
  2.3224301e+003
  2.3227026e+003
  2.3119329e+003
  2.3177002e+003
  2.3246910e+003
  2.3311675e+003
  2.3309459e+003
  2.3428806e+003
  2.3479772e+003
  2.3471251e+003
  2.3518663e+003
  2.3641049e+003
  2.3468955e+003
  2.3540206e+003
  2.3487921e+003
  2.3501925e+003
  2.3381284e+003
  2.3411922e+003
  2.3321730e+003
  2.3429733e+003
  2.3371100e+003
  2.3321135e+003
  2.3295227e+003
  2.3355750e+003
  2.3295700e+003
  2.3305219e+003
  2.3735355e+003
  2.3950854e+003
  2.4295791e+003
  2.4900184e+003
  2.4413589e+003
  2.4242325e+003
  2.3948512e+003
  2.3459365e+003
  2.3367839e+003
  2.2952669e+003
  2.2955136e+003
  2.2995689e+003
  2.3102442e+003
  2.2982814e+003
  2.2745653e+003
  2.4240492e+003
  2.9946030e+003
  3.2862016e+003
  2.6100667e+003
  2.2686484e+003
  2.3090601e+003
  2.3830848e+003
  2.3644886e+003
  2.3708692e+003
  2.3688896e+003
  2.3761392e+003
  2.4024385e+003
  2.4032655e+003
  2.4221591e+003
  2.4231840e+003
  2.4453457e+003
  2.4651576e+003
  2.4973564e+003
  2.5177736e+003
  2.5600208e+003
  2.6001366e+003
  2.6491451e+003
  2.6714758e+003
  2.6881957e+003
  2.6762521e+003
  2.6582232e+003
  2.5846122e+003
  2.4883860e+003
  2.4196900e+003
  2.3662048e+003
  2.3241681e+003
  2.3132822e+003
  2.3037232e+003
  2.2947841e+003
  2.2978235e+003
  2.2995101e+003
  2.3117359e+003
  2.3096186e+003
  2.3163854e+003
  2.3207594e+003
  2.3302509e+003
  2.3257277e+003
  2.3239275e+003
  2.3226679e+003
  2.3313416e+003
  2.3190866e+003
  2.3180681e+003
  2.3046401e+003
  2.3076195e+003
  2.3081447e+003
  2.3074477e+003
  2.2994569e+003
  2.3018168e+003
  2.2987103e+003
  2.3050487e+003
  2.2936305e+003
  2.3031569e+003
  2.3450654e+003
  2.3691517e+003
  2.4083873e+003
  2.4588782e+003
  2.4065028e+003
  2.3857656e+003
  2.3613990e+003
  2.3265733e+003
  2.2963564e+003
  2.2684082e+003
  2.2596023e+003
  2.2661023e+003
  2.2718409e+003
  2.2658074e+003
  2.2438922e+003
  2.3752298e+003
  2.9000927e+003
  3.2784377e+003
  2.6443492e+003
  2.2679194e+003
  2.2829251e+003
  2.3670006e+003
  2.3582710e+003
  2.3500441e+003
  2.3504174e+003
  2.3769168e+003
  2.3855190e+003
  2.3856753e+003
  2.4038648e+003
  2.4094846e+003
  2.4412921e+003
  2.4555895e+003
  2.4821010e+003
  2.5123753e+003
  2.5600040e+003
  2.6023034e+003
  2.6494041e+003
  2.6797635e+003
  2.7036172e+003
  2.6953058e+003
  2.6730877e+003
  2.5985498e+003
  2.5167981e+003
  2.4219271e+003
  2.3725865e+003
  2.3337741e+003
  2.3210009e+003
  2.3139969e+003
  2.3086173e+003
  2.3108234e+003
  2.3271718e+003
  2.3125940e+003
  2.3252879e+003
  2.3456632e+003
  2.3428719e+003
  2.3476866e+003
  2.3428479e+003
  2.3588495e+003
  2.3607621e+003
  2.3559883e+003
  2.3445978e+003
  2.3465087e+003
  2.3510973e+003
  2.3451255e+003
  2.3306149e+003
  2.3425306e+003
  2.3281212e+003
  2.3354124e+003
  2.3280019e+003
  2.3334764e+003
  2.3231485e+003
  2.3249560e+003
  2.3377821e+003
  2.3938268e+003
  2.4109205e+003
  2.4428881e+003
  2.4485886e+003
  2.4575536e+003
  2.4248670e+003
  2.3733101e+003
  2.3347923e+003
  2.3187830e+003
  2.2921538e+003
  2.2967536e+003
  2.2952550e+003
  2.3058046e+003
  2.2923255e+003
  2.2985639e+003
  2.5679180e+003
  3.1020167e+003
  3.0763813e+003
  2.3986323e+003
  2.2866991e+003
  2.3523484e+003
  2.3811867e+003
  2.3684923e+003
  2.3832428e+003
  2.3867146e+003
  2.3914488e+003
  2.4075677e+003
  2.4232962e+003
  2.4297777e+003
  2.4403529e+003
  2.4578580e+003
  2.4948706e+003
  2.5099777e+003
  2.5458639e+003
  2.5843616e+003
  2.6330148e+003
  2.6652019e+003
  2.7099495e+003
  2.7124575e+003
  2.7035319e+003
  2.6563315e+003
  2.5744384e+003
  2.4830557e+003
  2.4311420e+003
  2.3759933e+003
  2.3480033e+003
  2.3299345e+003
  2.3371383e+003
  2.3334626e+003
  2.3282551e+003
  2.3302997e+003
  2.3507849e+003
  2.3538362e+003
  2.3559757e+003
  2.3524424e+003
  2.3783207e+003
  2.3645756e+003
  2.3690165e+003
  2.3667244e+003
  2.3728157e+003
  2.3550021e+003
  2.3690710e+003
  2.3650179e+003
  2.3562065e+003
  2.3424444e+003
  2.3476512e+003
  2.3494100e+003
  2.3537211e+003
  2.3410718e+003
  2.3343655e+003
  2.3475016e+003
  2.3478037e+003
  2.3620873e+003
  2.3951825e+003
  2.4343365e+003
  2.4954408e+003
  2.4581256e+003
  2.4476188e+003
  2.4332209e+003
  2.3774824e+003
  2.3506506e+003
  2.3166301e+003
  2.3135298e+003
  2.3061425e+003
  2.3061857e+003
  2.3002321e+003
  2.2990734e+003
  2.3327078e+003
  2.7330556e+003
  3.2754273e+003
  2.9120121e+003
  2.3423472e+003
  2.2944872e+003
  2.3796725e+003
  2.3977251e+003
  2.3842812e+003
  2.3847456e+003
  2.3861762e+003
  2.3954737e+003
  2.4185161e+003
  2.4311940e+003
  2.4339903e+003
  2.4640046e+003
  2.4802074e+003
  2.5039989e+003
  2.5356612e+003
  2.5771389e+003
  2.6097824e+003
  2.6580271e+003
  2.7051509e+003
  2.7257349e+003
  2.7191007e+003
  2.6991174e+003
  2.6461591e+003
  2.5495385e+003
  2.4684101e+003
  2.3974224e+003
  2.3672604e+003
  2.3401413e+003
  2.3267178e+003
  2.3210635e+003
  2.3220905e+003
  2.3253893e+003
  2.3296409e+003
  2.3328166e+003
  2.3406655e+003
  2.3356489e+003
  2.3470766e+003
  2.3464639e+003
  2.3579366e+003
  2.3484447e+003
  2.3604987e+003
  2.3504797e+003
  2.3553727e+003
  2.3420285e+003
  2.3346501e+003
  2.3321905e+003
  2.3452998e+003
  2.3349126e+003
  2.3300067e+003
  2.3211978e+003
  2.3319531e+003
  2.3254928e+003
  2.3215336e+003
  2.3238611e+003
  2.3264464e+003
  2.3347860e+003
  2.3978681e+003
  2.4153224e+003
  2.4571096e+003
  2.4573495e+003
  2.4396709e+003
  2.4162462e+003
  2.3796201e+003
  2.3376821e+003
  2.3222369e+003
  2.3006729e+003
  2.2976693e+003
  2.2921427e+003
  2.2919140e+003
  2.2986510e+003
  2.2772443e+003
  2.4934622e+003
  3.0580233e+003
  3.2195201e+003
  2.5011252e+003
  2.2829264e+003
  2.3226783e+003
  2.3862713e+003
  2.3613606e+003
  2.3767562e+003
  2.3799526e+003
  2.3967090e+003
  2.3944260e+003
  2.4092227e+003
  2.4300842e+003
  2.4499941e+003
  2.4566344e+003
  2.4816721e+003
  2.5037770e+003
  2.5482763e+003
  2.5800222e+003
  2.6233029e+003
  2.6710911e+003
  2.7102963e+003
  2.7197158e+003
  2.7148591e+003
  2.6763786e+003
  2.6100891e+003
  2.5089334e+003
  2.4428978e+003
  2.3817264e+003
  2.3529581e+003
  2.3382911e+003
  2.3274431e+003
  2.3288907e+003
  2.3226363e+003
  2.3234623e+003
  2.3321390e+003
  2.3440544e+003
  2.3467788e+003
  2.3457702e+003
  2.3541751e+003
  2.3694611e+003
  2.3631199e+003
  2.3570550e+003
  2.3545761e+003
  2.3577302e+003
  2.3492399e+003
  2.3472460e+003
  2.3340981e+003
  2.3364408e+003
  2.3286294e+003
  2.3324446e+003
  2.3284481e+003
  2.3348343e+003
  2.3285653e+003
  2.3351544e+003
  2.3325761e+003
  2.3391165e+003
  2.3367941e+003
  2.3347511e+003
  2.3698707e+003
  2.4047742e+003
  2.4357928e+003
  2.4823803e+003
  2.4316222e+003
  2.4331139e+003
  2.4041706e+003
  2.3624239e+003
  2.3422049e+003
  2.3218220e+003
  2.3019583e+003
  2.3029825e+003
  2.3054210e+003
  2.3069429e+003
  2.2937848e+003
  2.3474143e+003
  2.7539657e+003
  3.2621478e+003
  2.8340819e+003
  2.3116706e+003
  2.2957979e+003
  2.3777026e+003
  2.3831542e+003
  2.3778319e+003
  2.3872691e+003
  2.4026939e+003
  2.4039547e+003
  2.4121253e+003
  2.4313655e+003
  2.4435170e+003
  2.4610808e+003
  2.4807253e+003
  2.5066743e+003
  2.5240148e+003
  2.5720083e+003
  2.6119968e+003
  2.6664072e+003
  2.7054809e+003
  2.7325715e+003
  2.7306025e+003
  2.7266287e+003
  2.6671094e+003
  2.5852101e+003
  2.4937625e+003
  2.4436765e+003
  2.3906492e+003
  2.3650122e+003
  2.3594143e+003
  2.3671485e+003
  2.3554124e+003
  2.3597148e+003
  2.3623007e+003
  2.3716760e+003
  2.3752687e+003
  2.3758357e+003
  2.3814633e+003
  2.3942544e+003
  2.3924947e+003
  2.3877937e+003
  2.3864654e+003
  2.3829098e+003
  2.3810713e+003
  2.3768255e+003
  2.3744874e+003
  2.3761546e+003
  2.3785067e+003
  2.3584792e+003
  2.3700560e+003
  2.3659826e+003
  2.3678446e+003
  2.3601804e+003
  2.3796120e+003
  2.3757909e+003
  2.3787565e+003
  2.3678628e+003
  2.3927533e+003
  2.4362770e+003
  2.4595696e+003
  2.4981120e+003
  2.5168364e+003
  2.4986109e+003
  2.4982138e+003
  2.4306163e+003
  2.4097511e+003
  2.3847261e+003
  2.3531910e+003
  2.3660631e+003
  2.3792220e+003
  2.3652963e+003
  2.3629274e+003
  2.3478180e+003
  2.6064501e+003
  3.1607352e+003
  3.2200326e+003
  2.5228488e+003
  2.3447947e+003
  2.4039371e+003
  2.4543274e+003
  2.4304371e+003
  2.4470398e+003
  2.4688911e+003
  2.4565868e+003
  2.4742721e+003
  2.4871205e+003
  2.5003011e+003
  2.5141451e+003
  2.5339486e+003
  2.5483096e+003
  2.5836719e+003
  2.6134450e+003
  2.6458737e+003
  2.6878181e+003
  2.7262625e+003
  2.7591521e+003
  2.7876072e+003
  2.7800218e+003
  2.7320659e+003
  2.6500366e+003
  2.5810084e+003
  2.4928525e+003
  2.4416247e+003
  2.4114241e+003
  2.4064306e+003
  2.3944037e+003
  2.3935780e+003
  2.3922264e+003
  2.3996559e+003
  2.3944432e+003
  2.4063756e+003
  2.4046328e+003
  2.4131722e+003
  2.4087201e+003
  2.4140079e+003
  2.4178677e+003
  2.4138729e+003
  2.4039218e+003
  2.4004971e+003
  2.4126517e+003
  2.4047213e+003
  2.3998300e+003
  2.3892970e+003
  2.3873923e+003
  2.3879191e+003
  2.3856951e+003
  2.3775169e+003
  2.3816000e+003
  2.3757300e+003
  2.3722227e+003
  2.3712958e+003
  2.3772543e+003
  2.3787558e+003
  2.4346972e+003
  2.4458358e+003
  2.5035149e+003
  2.5105356e+003
  2.5023599e+003
  2.4654156e+003
  2.4385570e+003
  2.3914285e+003
  2.3645584e+003
  2.3293920e+003
  2.3442124e+003
  2.3293776e+003
  2.3377021e+003
  2.3312503e+003
  2.3130157e+003
  2.4928590e+003
  3.0621242e+003
  3.3111025e+003
  2.6221014e+003
  2.3147833e+003
  2.3458400e+003
  2.4278292e+003
  2.4059139e+003
  2.4044098e+003
  2.4100537e+003
  2.4141890e+003
  2.4305994e+003
  2.4280672e+003
  2.4424155e+003
  2.4652498e+003
  2.4818340e+003
  2.4950816e+003
  2.5149708e+003
  2.5568198e+003
  2.5849641e+003
  2.6350565e+003
  2.6736022e+003
  2.7111326e+003
  2.7257107e+003
  2.7238597e+003
  2.6894639e+003
  2.6184410e+003
  2.5188422e+003
  2.4491937e+003
  2.3864036e+003
  2.3575553e+003
  2.3330919e+003
  2.3288348e+003
  2.3255226e+003
  2.3351320e+003
  2.3278923e+003
  2.3322263e+003
  2.3396207e+003
  2.3490529e+003
  2.3501202e+003
  2.3568390e+003
  2.3553971e+003
  2.3621303e+003
  2.3634372e+003
  2.3594280e+003
  2.3552941e+003
  2.3498302e+003
  2.3442602e+003
  2.3495282e+003
  2.3406221e+003
  2.3360390e+003
  2.3291773e+003
  2.3305640e+003
  2.3374040e+003
  2.3288349e+003
  2.3270261e+003
  2.3290720e+003
  2.3333803e+003
  2.3335063e+003
  2.3313870e+003
  2.3336050e+003
  2.3603838e+003
  2.4027858e+003
  2.4228056e+003
  2.4629637e+003
  2.4673540e+003
  2.4544628e+003
  2.4300103e+003
  2.3892989e+003
  2.3600123e+003
  2.3318292e+003
  2.3102983e+003
  2.3106759e+003
  2.3145166e+003
  2.3067239e+003
  2.3128560e+003
  2.3071243e+003
  2.5791045e+003
  3.1194021e+003
  3.1063245e+003
  2.4243004e+003
  2.3040279e+003
  2.3593519e+003
  2.4003551e+003
  2.3859619e+003
  2.3966983e+003
  2.3992822e+003
  2.4023757e+003
  2.4220742e+003
  2.4359322e+003
  2.4452072e+003
  2.4662495e+003
  2.4839478e+003
  2.5144738e+003
  2.5269430e+003
  2.5579818e+003
  2.6054633e+003
  2.6435521e+003
  2.6883280e+003
  2.7180508e+003
  2.7438999e+003
  2.7312874e+003
  2.6843464e+003
  2.6158890e+003
  2.5371130e+003
  2.4564288e+003
  2.4095237e+003
  2.3677353e+003
  2.3600323e+003
  2.3551552e+003
  2.3532062e+003
  2.3463930e+003
  2.3498294e+003
  2.3568774e+003
  2.3797231e+003
  2.3761537e+003
  2.3909847e+003
  2.3862798e+003
  2.3848638e+003
  2.3872947e+003
  2.3905670e+003
  2.3841592e+003
  2.3896165e+003
  2.3816314e+003
  2.3775830e+003
  2.3732358e+003
  2.3711314e+003
  2.3776314e+003
  2.3794659e+003
  2.3697524e+003
  2.3701125e+003
  2.3722638e+003
  2.3801409e+003
  2.3862995e+003
  2.3825240e+003
  2.3805793e+003
  2.3807593e+003
  2.3898097e+003
  2.4001650e+003
  2.4540705e+003
  2.4687106e+003
  2.4987431e+003
  2.5179212e+003
  2.5183812e+003
  2.4807301e+003
  2.4365689e+003
  2.4100228e+003
  2.3805407e+003
  2.3546395e+003
  2.3693545e+003
  2.3535858e+003
  2.3648169e+003
  2.3653021e+003
  2.3529580e+003
  2.6098752e+003
  3.1539311e+003
  3.2071170e+003
  2.5198327e+003
  2.3505856e+003
  2.4218635e+003
  2.4630154e+003
  2.4492551e+003
  2.4563111e+003
  2.4659071e+003
  2.4570046e+003
  2.4730668e+003
  2.4892957e+003
  2.5102845e+003
  2.5081279e+003
  2.5226482e+003
  2.5545695e+003
  2.5786766e+003
  2.6038514e+003
  2.6449463e+003
  2.6994390e+003
  2.7507632e+003
  2.7605719e+003
  2.7815888e+003
  2.7842384e+003
  2.7398788e+003
  2.6632837e+003
  2.5816454e+003
  2.5149803e+003
  2.4559554e+003
  2.4173135e+003
  2.4168848e+003
  2.3978888e+003
  2.4073501e+003
  2.4021938e+003
  2.4153031e+003
  2.4257128e+003
  2.4311216e+003
  2.4244695e+003
  2.4273374e+003
  2.4316228e+003
  2.4522674e+003
  2.4521089e+003
  2.4325093e+003
  2.4395565e+003
  2.4362636e+003
  2.4304987e+003
  2.4114060e+003
  2.4253939e+003
  2.4195815e+003
  2.4199225e+003
  2.4244117e+003
  2.4230266e+003
  2.4124426e+003
  2.4142262e+003
  2.4114773e+003
  2.4194330e+003
  2.4018610e+003
  2.3987526e+003
  2.4250225e+003
  2.4656469e+003
  2.4817558e+003
  2.5121111e+003
  2.5260420e+003
  2.5292516e+003
  2.4921848e+003
  2.4351366e+003
  2.4030654e+003
  2.3866747e+003
  2.3556900e+003
  2.3517224e+003
  2.3609155e+003
  2.3548786e+003
  2.3499837e+003
  2.3618542e+003
  2.6916854e+003
  3.2271769e+003
  3.0941618e+003
  2.4170096e+003
  2.3402056e+003
  2.3983920e+003
  2.4255195e+003
  2.4131021e+003
  2.4245270e+003
  2.4270055e+003
  2.4225093e+003
  2.4430009e+003
  2.4618711e+003
  2.4672196e+003
  2.4809887e+003
  2.4979712e+003
  2.5283048e+003
  2.5491855e+003
  2.5843940e+003
  2.6217594e+003
  2.6665901e+003
  2.7026742e+003
  2.7309084e+003
  2.7421243e+003
  2.7303780e+003
  2.6741644e+003
  2.5945572e+003
  2.5153479e+003
  2.4371215e+003
  2.3772403e+003
  2.3430369e+003
  2.3386354e+003
  2.3384548e+003
  2.3327606e+003
  2.3286086e+003
  2.3350822e+003
  2.3358780e+003
  2.3468320e+003
  2.3402494e+003
  2.3535842e+003
  2.3524071e+003
  2.3535187e+003
  2.3506392e+003
  2.3516975e+003
  2.3499430e+003
  2.3466048e+003
  2.3396848e+003
  2.3392903e+003
  2.3272982e+003
  2.3195369e+003
  2.3175549e+003
  2.3290174e+003
  2.3118470e+003
  2.3091187e+003
  2.3098814e+003
  2.3203597e+003
  2.3142598e+003
  2.3183393e+003
  2.3209338e+003
  2.3285567e+003
  2.3373716e+003
  2.3818060e+003
  2.4173483e+003
  2.4538035e+003
  2.4318195e+003
  2.4392629e+003
  2.4056953e+003
  2.3644112e+003
  2.3339932e+003
  2.3055844e+003
  2.2888036e+003
  2.2916302e+003
  2.2798071e+003
  2.2869727e+003
  2.2778005e+003
  2.3065636e+003
  2.6826034e+003
  3.2068607e+003
  2.8789838e+003
  2.3041531e+003
  2.2696142e+003
  2.3459930e+003
  2.3627708e+003
  2.3581113e+003
  2.3652345e+003
  2.3795311e+003
  2.3828675e+003
  2.3970251e+003
  2.4098925e+003
  2.4147636e+003
  2.4465181e+003
  2.4522863e+003
  2.4843083e+003
  2.5093166e+003
  2.5452579e+003
  2.5758647e+003
  2.6244650e+003
  2.6628472e+003
  2.6985089e+003
  2.6980762e+003
  2.6859764e+003
  2.6342686e+003
  2.5519641e+003
  2.4725232e+003
  2.3955358e+003
  2.3480388e+003
  2.3271203e+003
  2.3116942e+003
  2.3063085e+003
  2.3047777e+003
  2.3077499e+003
  2.3079679e+003
  2.3172668e+003
  2.3254510e+003
  2.3255642e+003
  2.3346918e+003
  2.3357035e+003
  2.3439080e+003
  2.3399008e+003
  2.3391445e+003
  2.3375525e+003
  2.3408176e+003
  2.3381659e+003
  2.5509357e+003
  2.7983155e+003
  2.8662399e+003
  2.9493229e+003
  2.7017735e+003
  2.5954896e+003
  2.6365620e+003
  2.4744771e+003
  2.4602725e+003
  2.3502391e+003
  2.3296173e+003
  2.2494561e+003
  2.1652878e+003
  2.1531084e+003
  2.1919054e+003
  2.2947993e+003
  2.3742033e+003
  2.3808490e+003
  2.4368173e+003
  2.4489404e+003
  2.4811939e+003
  2.4927193e+003
  2.5119981e+003
  2.5177072e+003
  2.5327079e+003
  2.5805271e+003
  2.6159168e+003
  2.6443019e+003
  2.6364691e+003
  2.5968513e+003
  2.5191685e+003
  2.4539211e+003
  2.4195967e+003
  2.4001903e+003
  2.3772421e+003
  2.3709028e+003
  2.3744951e+003
  2.3701903e+003
  2.3662833e+003
  2.3664163e+003
  2.3670685e+003
  2.3680809e+003
  2.3567988e+003
  2.3637998e+003
  2.3471819e+003
  2.3554441e+003
  2.3393018e+003
  2.3321136e+003
  2.3236218e+003
  2.3279628e+003
  2.3235862e+003
  2.3186131e+003
  2.3209693e+003
  2.3285706e+003
  2.3132982e+003
  2.3170490e+003
  2.3129059e+003
  2.3232284e+003
  2.3147820e+003
  2.3112418e+003
  2.3261878e+003
  2.3320035e+003
  2.3173109e+003
  2.3286300e+003
  2.3318462e+003
  2.3302267e+003
  2.3352234e+003
  2.3315608e+003
  2.3362443e+003
  2.3387979e+003
  2.3302156e+003
  2.3301804e+003
  2.3464958e+003
  2.3280541e+003
  2.3393851e+003
  2.3367469e+003
  2.3407768e+003
  2.3303359e+003
  2.3350286e+003
  2.3346919e+003
  2.3379366e+003
  2.3374326e+003
  2.3386556e+003
  2.3358997e+003
  2.3457548e+003
  2.3381819e+003
  2.3506206e+003
  2.3396279e+003
  2.3532222e+003
  2.3526763e+003
  2.3785116e+003
  2.4212133e+003
  2.4550235e+003
  2.5020097e+003
  2.4768711e+003
  2.4827029e+003
  2.4619674e+003
  2.3823701e+003
  2.3641318e+003
  2.3435071e+003
  2.3248932e+003
  2.3274500e+003
  2.3216770e+003
  2.3223964e+003
  2.2909353e+003
  2.5284172e+003
  3.0913529e+003
  3.2747622e+003
  2.5297647e+003
  2.3207843e+003
  2.3604366e+003
  2.4171996e+003
  2.3934912e+003
  2.4016688e+003
  2.3983926e+003
  2.3947146e+003
  2.4082863e+003
  2.4219116e+003
  2.4365427e+003
  2.4460244e+003
  2.4379421e+003
  2.4774205e+003
  2.4915674e+003
  2.5253461e+003
  2.5488539e+003
  2.5802148e+003
  2.6129724e+003
  2.6497594e+003
  2.6539764e+003
  2.6550334e+003
  2.6449720e+003
  2.6137387e+003
  2.5428168e+003
  2.4736529e+003
  2.4221823e+003
  2.3911883e+003
  2.3693652e+003
  2.3508885e+003
  2.3579708e+003
  2.3569814e+003
  2.3583294e+003
  2.3597107e+003
  2.3698274e+003
  2.3723983e+003
  2.3771584e+003
  2.3647954e+003
  2.3764607e+003
  2.3728900e+003
  2.3620273e+003
  2.3537083e+003
  2.3580941e+003
  2.3482456e+003
  2.3447265e+003
  2.3319984e+003
  2.3390038e+003
  2.3359006e+003
  2.3241430e+003
  2.3131333e+003
  2.3233531e+003
  2.3073258e+003
  2.3130381e+003
  2.3131772e+003
  2.3185181e+003
  2.3381991e+003
  2.3757793e+003
  2.4028610e+003
  2.4559826e+003
  2.4046545e+003
  2.4017346e+003
  2.3665355e+003
  2.3256180e+003
  2.2972433e+003
  2.2631217e+003
  2.2505449e+003
  2.2627675e+003
  2.2606135e+003
  2.2522374e+003
  2.2295373e+003
  2.3561401e+003
  2.8721098e+003
  3.2728435e+003
  2.6663026e+003
  2.2549368e+003
  2.2649821e+003
  2.3430845e+003
  2.3338049e+003
  2.3294205e+003
  2.3257426e+003
  2.3471335e+003
  2.3577004e+003
  2.3599762e+003
  2.3658381e+003
  2.3792860e+003
  2.4091595e+003
  2.4218732e+003
  2.4392323e+003
  2.4719277e+003
  2.5144274e+003
  2.5516294e+003
  2.6034258e+003
  2.6204931e+003
  2.6428236e+003
  2.6447025e+003
  2.6196544e+003
  2.5462314e+003
  2.4741962e+003
  2.3850748e+003
  2.3268342e+003
  2.2824765e+003
  2.2713628e+003
  2.2631201e+003
  2.2617597e+003
  2.2541828e+003
  2.2670627e+003
  2.2606842e+003
  2.2747990e+003
  2.2847970e+003
  2.2929445e+003
  2.2966163e+003
  2.2866911e+003
  2.2957654e+003
  2.2983164e+003
  2.2895768e+003
  2.2868759e+003
  2.2820934e+003
  2.2791906e+003
  2.2798715e+003
  2.2830954e+003
  2.2802054e+003
  2.2759853e+003
  2.2785751e+003
  2.2726923e+003
  2.2777899e+003
  2.2763324e+003
  2.2744498e+003
  2.2735129e+003
  2.3149954e+003
  2.3448534e+003
  2.3776373e+003
  2.4267455e+003
  2.3976461e+003
  2.3822341e+003
  2.3536814e+003
  2.3081504e+003
  2.2891384e+003
  2.2521095e+003
  2.2524843e+003
  2.2496452e+003
  2.2618941e+003
  2.2589256e+003
  2.2370067e+003
  2.3474791e+003
  2.8692907e+003
  3.2653423e+003
  2.6573708e+003
  2.2414728e+003
  2.2707837e+003
  2.3461985e+003
  2.3410255e+003
  2.3471587e+003
  2.3522448e+003
  2.3605751e+003
  2.3665629e+003
  2.3803845e+003
  2.3993899e+003
  2.4083895e+003
  2.4212688e+003
  2.4431388e+003
  2.4778554e+003
  2.5031542e+003
  2.5458241e+003
  2.6000389e+003
  2.6301486e+003
  2.6661475e+003
